Temp,Mo@liq,Si@liq,Ti@liq,Mo@motisi,Si@moti5si3,Ti@moti5si3
912,0.272313,0.0127183,0.714968,0.126087,0.37464,0.499274
911,0.272734,0.0125928,0.714673,0.126145,0.374642,0.499213
910,0.273152,0.012469,0.714379,0.126203,0.374644,0.499152
909,0.273566,0.0123469,0.714087,0.126262,0.374646,0.499092
908,0.273978,0.0122265,0.713796,0.12632,0.374649,0.499031
907,0.274386,0.0121077,0.713506,0.126378,0.374651,0.498971
906,0.274791,0.0119905,0.713218,0.126436,0.374653,0.498911
905,0.275194,0.0118749,0.712931,0.126495,0.374655,0.49885
904,0.275593,0.0117607,0.712646,0.126553,0.374657,0.49879
903,0.27599,0.0116481,0.712362,0.126611,0.374659,0.49873
902,0.276384,0.0115369,0.712079,0.126669,0.374662,0.49867
901,0.276776,0.0114271,0.711797,0.126727,0.374664,0.49861
900,0.277166,0.0113185,0.711516,0.126785,0.374666,0.498549
899,0.277553,0.0112114,0.711236,0.126843,0.374668,0.498489
898,0.277937,0.0111057,0.710957,0.126901,0.37467,0.498429
897,0.278319,0.0110012,0.71068,0.126958,0.374672,0.498369
896,0.278699,0.0108979,0.710403,0.127016,0.374674,0.498309
895,0.279076,0.0107959,0.710128,0.127074,0.374677,0.498249
894,0.279452,0.0106952,0.709853,0.127132,0.374679,0.49819
893,0.279825,0.0105955,0.70958,0.127189,0.374681,0.49813
892,0.280196,0.0104971,0.709307,0.127247,0.374683,0.49807
891,0.280565,0.0103998,0.709035,0.127305,0.374685,0.49801
890,0.280932,0.0103036,0.708764,0.127363,0.374687,0.497951
889,0.281297,0.0102085,0.708494,0.12742,0.374689,0.497891
888,0.281661,0.0101145,0.708225,0.127478,0.374691,0.497831
887,0.282022,0.0100215,0.707956,0.127535,0.374693,0.497772
886,0.282382,0.00992956,0.707689,0.127593,0.374695,0.497712
885,0.28274,0.00983863,0.707422,0.12765,0.374697,0.497653
884,0.283096,0.00974869,0.707156,0.127708,0.374699,0.497593
883,0.28345,0.00965973,0.70689,0.127765,0.374701,0.497534
882,0.283803,0.00957173,0.706625,0.127823,0.374703,0.497474
881,0.284154,0.00948467,0.706361,0.12788,0.374705,0.497415
880,0.284504,0.00939853,0.706098,0.127937,0.374707,0.497355
879,0.284852,0.00931331,0.705835,0.127995,0.374709,0.497296
878,0.285198,0.00922898,0.705573,0.128052,0.374711,0.497237
877,0.285544,0.00914553,0.705311,0.128109,0.374713,0.497178
876,0.285887,0.00906294,0.70505,0.128167,0.374715,0.497118
875,0.286229,0.0089812,0.70479,0.128224,0.374717,0.497059
874,0.28657,0.0089003,0.70453,0.128281,0.374719,0.497
873,0.286909,0.00882022,0.70427,0.128338,0.374721,0.496941
872,0.287248,0.00874095,0.704012,0.128396,0.374723,0.496882
871,0.287584,0.00866248,0.703753,0.128453,0.374725,0.496823
870,0.28792,0.00858479,0.703495,0.12851,0.374726,0.496763
869,0.288254,0.00850787,0.703238,0.128567,0.374728,0.496704
868,0.288587,0.00843171,0.702981,0.128624,0.37473,0.496645
867,0.288919,0.0083563,0.702725,0.128681,0.374732,0.496586
866,0.289249,0.00828163,0.702469,0.128739,0.374734,0.496527
865,0.289579,0.00820768,0.702214,0.128796,0.374736,0.496469
864,0.289907,0.00813445,0.701959,0.128853,0.374738,0.49641
863,0.290234,0.00806192,0.701704,0.12891,0.37474,0.496351
862,0.29056,0.00799009,0.70145,0.128967,0.374741,0.496292
861,0.290885,0.00791895,0.701196,0.129024,0.374743,0.496233
860,0.291209,0.00784847,0.700943,0.129081,0.374745,0.496174
859,0.291532,0.00777867,0.70069,0.129138,0.374747,0.496115
858,0.291854,0.00770952,0.700437,0.129195,0.374749,0.496057
857,0.292174,0.00764101,0.700185,0.129252,0.37475,0.495998
856,0.292494,0.00757315,0.699933,0.129309,0.374752,0.495939
855,0.292813,0.00750591,0.699681,0.129365,0.374754,0.495881
854,0.293131,0.0074393,0.69943,0.129422,0.374756,0.495822
853,0.293448,0.0073733,0.699178,0.129479,0.374758,0.495763
852,0.293764,0.0073079,0.698928,0.129536,0.374759,0.495705
851,0.29408,0.0072431,0.698677,0.129593,0.374761,0.495646
850,0.294394,0.00717889,0.698427,0.12965,0.374763,0.495587
849,0.294707,0.00711526,0.698177,0.129707,0.374765,0.495529
848,0.29502,0.00705221,0.697928,0.129763,0.374766,0.49547
847,0.295332,0.00698972,0.697678,0.12982,0.374768,0.495412
846,0.295643,0.00692779,0.697429,0.129877,0.37477,0.495353
845,0.295953,0.00686641,0.69718,0.129934,0.374771,0.495295
844,0.296263,0.00680558,0.696932,0.129991,0.374773,0.495236
843,0.296571,0.00674529,0.696683,0.130047,0.374775,0.495178
842,0.296879,0.00668553,0.696435,0.130104,0.374776,0.495119
841,0.297187,0.0066263,0.696187,0.130161,0.374778,0.495061
840,0.297493,0.00656758,0.695939,0.130218,0.37478,0.495003
839,0.297799,0.00650938,0.695692,0.130274,0.374781,0.494944
838,0.298104,0.00645169,0.695444,0.130331,0.374783,0.494886
837,0.298408,0.0063945,0.695197,0.130388,0.374785,0.494828
836,0.298712,0.0063378,0.69495,0.130444,0.374786,0.494769
835,0.299015,0.0062816,0.694703,0.130501,0.374788,0.494711
834,0.299318,0.00622588,0.694456,0.130558,0.374789,0.494653
833,0.299619,0.00617063,0.69421,0.130614,0.374791,0.494594
832,0.299921,0.00611586,0.693963,0.130671,0.374793,0.494536
831,0.300221,0.00606156,0.693717,0.130728,0.374794,0.494478
830,0.300521,0.00600773,0.693471,0.130784,0.374796,0.49442
829,0.300821,0.00595434,0.693225,0.130841,0.374797,0.494362
828,0.301119,0.00590142,0.692979,0.130898,0.374799,0.494303
827,0.301418,0.00584894,0.692733,0.130954,0.374801,0.494245
826,0.301715,0.0057969,0.692488,0.131011,0.374802,0.494187
825,0.302012,0.0057453,0.692242,0.131067,0.374804,0.494129
824,0.302309,0.00569414,0.691997,0.131124,0.374805,0.494071
823,0.302605,0.0056434,0.691752,0.131181,0.374807,0.494013
822,0.302901,0.00559309,0.691506,0.131237,0.374808,0.493955
821,0.303196,0.0055432,0.691261,0.131294,0.37481,0.493897
820,0.30349,0.00549372,0.691016,0.13135,0.374811,0.493839
819,0.303784,0.00544466,0.690771,0.131407,0.374813,0.49378
818,0.304078,0.005396,0.690526,0.131463,0.374814,0.493722
817,0.304371,0.00534775,0.690281,0.13152,0.374816,0.493664
816,0.304664,0.00529989,0.690036,0.131577,0.374817,0.493606
815,0.304956,0.00525243,0.689792,0.131633,0.374819,0.493548
814,0.305248,0.00520536,0.689547,0.13169,0.37482,0.49349
813,0.305539,0.00515868,0.689302,0.131746,0.374821,0.493433
812,0.30583,0.00511238,0.689058,0.131803,0.374823,0.493375
811,0.306121,0.00506646,0.688813,0.131859,0.374824,0.493317
810,0.306411,0.00502092,0.688568,0.131916,0.374826,0.493259
809,0.3067,0.00497575,0.688324,0.131972,0.374827,0.493201
808,0.30699,0.00493094,0.688079,0.132029,0.374828,0.493143
807,0.307279,0.00488651,0.687835,0.132085,0.37483,0.493085
806,0.307567,0.00484243,0.68759,0.132142,0.374831,0.493027
805,0.307855,0.00479871,0.687346,0.132198,0.374833,0.492969
804,0.308143,0.00475535,0.687101,0.132255,0.374834,0.492911
803,0.308431,0.00471234,0.686857,0.132311,0.374835,0.492854
802,0.308718,0.00466967,0.686612,0.132367,0.374837,0.492796
801,0.309005,0.00462735,0.686368,0.132424,0.374838,0.492738
800,0.309291,0.00458538,0.686123,0.13248,0.374839,0.49268
799,0.309577,0.00454374,0.685879,0.132537,0.374841,0.492622
798,0.309863,0.00450243,0.685634,0.132593,0.374842,0.492565
797,0.310149,0.00446146,0.68539,0.13265,0.374843,0.492507
796,0.310434,0.00442082,0.685145,0.132706,0.374845,0.492449
795,0.310719,0.00438051,0.6849,0.132763,0.374846,0.492391
794,0.311004,0.00434052,0.684656,0.132819,0.374847,0.492334
793,0.311288,0.00430085,0.684411,0.132875,0.374849,0.492276
792,0.311572,0.00426149,0.684166,0.132932,0.37485,0.492218
791,0.311856,0.00422246,0.683921,0.132988,0.374851,0.492161
790,0.31214,0.00418373,0.683676,0.133045,0.374852,0.492103
789,0.312423,0.00414532,0.683432,0.133101,0.374854,0.492045
788,0.312706,0.00410721,0.683187,0.133158,0.374855,0.491987
787,0.312989,0.00406941,0.682942,0.133214,0.374856,0.49193
786,0.313272,0.0040319,0.682696,0.13327,0.374857,0.491872
785,0.313554,0.0039947,0.682451,0.133327,0.374859,0.491815
784,0.313836,0.0039578,0.682206,0.133383,0.37486,0.491757
783,0.314118,0.00392118,0.681961,0.13344,0.374861,0.491699
782,0.3144,0.00388486,0.681715,0.133496,0.374862,0.491642
781,0.314681,0.00384883,0.68147,0.133552,0.374864,0.491584
780,0.314963,0.00381309,0.681224,0.133609,0.374865,0.491527
779,0.315244,0.00377763,0.680978,0.133665,0.374866,0.491469
778,0.315525,0.00374245,0.680733,0.133722,0.374867,0.491411
777,0.315806,0.00370755,0.680487,0.133778,0.374868,0.491354
776,0.316086,0.00367293,0.680241,0.133834,0.374869,0.491296
775,0.316367,0.00363859,0.679995,0.133891,0.374871,0.491239
774,0.316647,0.00360452,0.679749,0.133947,0.374872,0.491181
773,0.316927,0.00357072,0.679502,0.134003,0.374873,0.491124
772,0.317207,0.00353718,0.679256,0.13406,0.374874,0.491066
771,0.317487,0.00350392,0.67901,0.134116,0.374875,0.491009
770,0.317766,0.00347091,0.678763,0.134173,0.374876,0.490951
769,0.318046,0.00343818,0.678516,0.134229,0.374877,0.490894
768,0.318325,0.0034057,0.678269,0.134285,0.374879,0.490836
767,0.318604,0.00337347,0.678022,0.134342,0.37488,0.490779
766,0.318883,0.00334151,0.677775,0.134398,0.374881,0.490721
765,0.319162,0.0033098,0.677528,0.134454,0.374882,0.490664
764,0.319441,0.00327834,0.677281,0.134511,0.374883,0.490606
763,0.31972,0.00324713,0.677033,0.134567,0.374884,0.490549
762,0.319998,0.00321617,0.676785,0.134623,0.374885,0.490492
761,0.320277,0.00318546,0.676538,0.13468,0.374886,0.490434
760,0.320555,0.00315499,0.67629,0.134736,0.374887,0.490377
759,0.320834,0.00312476,0.676042,0.134793,0.374888,0.490319
758,0.321112,0.00309477,0.675793,0.134849,0.374889,0.490262
757,0.32139,0.00306502,0.675545,0.134905,0.37489,0.490204
756,0.321668,0.00303551,0.675296,0.134962,0.374891,0.490147
755,0.321946,0.00300624,0.675048,0.135018,0.374892,0.49009
754,0.322224,0.00297719,0.674799,0.135074,0.374893,0.490032
753,0.322502,0.00294838,0.67455,0.135131,0.374894,0.489975
752,0.32278,0.0029198,0.674301,0.135187,0.374895,0.489918
751,0.323057,0.00289145,0.674051,0.135243,0.374896,0.48986
750,0.323335,0.00286333,0.673802,0.1353,0.374897,0.489803
749,0.323613,0.00283543,0.673552,0.135356,0.374898,0.489746
748,0.32389,0.00280775,0.673302,0.135412,0.374899,0.489688
747,0.324168,0.00278029,0.673052,0.135469,0.3749,0.489631
746,0.324445,0.00275306,0.672802,0.135525,0.374901,0.489574
745,0.324723,0.00272604,0.672551,0.135581,0.374902,0.489516
744,0.325,0.00269924,0.672301,0.135638,0.374903,0.489459
743,0.325277,0.00267265,0.67205,0.135694,0.374904,0.489402
742,0.325555,0.00264628,0.671799,0.13575,0.374905,0.489345
741,0.325832,0.00262012,0.671548,0.135807,0.374906,0.489287
740,0.326109,0.00259417,0.671296,0.135863,0.374907,0.48923
739,0.326387,0.00256843,0.671045,0.13592,0.374908,0.489173
738,0.326664,0.0025429,0.670793,0.135976,0.374909,0.489116
737,0.326941,0.00251758,0.670541,0.136032,0.37491,0.489058
736,0.327219,0.00249245,0.670289,0.136089,0.37491,0.489001
735,0.327496,0.00246754,0.670037,0.136145,0.374911,0.488944
734,0.327773,0.00244282,0.669784,0.136201,0.374912,0.488887
733,0.328051,0.0024183,0.669531,0.136258,0.374913,0.488829
732,0.328328,0.00239398,0.669278,0.136314,0.374914,0.488772
731,0.328605,0.00236986,0.669025,0.13637,0.374915,0.488715
730,0.328883,0.00234594,0.668771,0.136427,0.374916,0.488658
729,0.32916,0.00232221,0.668518,0.136483,0.374916,0.488601
728,0.329437,0.00229867,0.668264,0.136539,0.374917,0.488543
727,0.329715,0.00227533,0.66801,0.136596,0.374918,0.488486
726,0.329992,0.00225217,0.667755,0.136652,0.374919,0.488429
725,0.33027,0.00222921,0.667501,0.136708,0.37492,0.488372
724,0.330548,0.00220643,0.667246,0.136765,0.374921,0.488315
723,0.330825,0.00218384,0.666991,0.136821,0.374921,0.488258
722,0.331103,0.00216144,0.666736,0.136877,0.374922,0.4882
721,0.331381,0.00213922,0.66648,0.136934,0.374923,0.488143
720,0.331658,0.00211718,0.666224,0.13699,0.374924,0.488086
719,0.331936,0.00209532,0.665968,0.137046,0.374925,0.488029
718,0.332214,0.00207365,0.665712,0.137103,0.374925,0.487972
717,0.332492,0.00205215,0.665456,0.137159,0.374926,0.487915
716,0.33277,0.00203083,0.665199,0.137215,0.374927,0.487858
715,0.333048,0.00200969,0.664942,0.137272,0.374928,0.487801
714,0.333326,0.00198872,0.664685,0.137328,0.374929,0.487744
713,0.333605,0.00196793,0.664427,0.137384,0.374929,0.487686
712,0.333883,0.00194731,0.66417,0.137441,0.37493,0.487629
711,0.334161,0.00192686,0.663912,0.137497,0.374931,0.487572
710,0.33444,0.00190659,0.663654,0.137553,0.374932,0.487515
709,0.334719,0.00188648,0.663395,0.13761,0.374932,0.487458
708,0.334997,0.00186654,0.663136,0.137666,0.374933,0.487401
707,0.335276,0.00184677,0.662877,0.137722,0.374934,0.487344
706,0.335555,0.00182716,0.662618,0.137779,0.374934,0.487287
705,0.335834,0.00180772,0.662358,0.137835,0.374935,0.48723
704,0.336113,0.00178844,0.662099,0.137891,0.374936,0.487173
703,0.336392,0.00176933,0.661838,0.137947,0.374937,0.487116
702,0.336672,0.00175037,0.661578,0.138004,0.374937,0.487059
701,0.336951,0.00173158,0.661317,0.13806,0.374938,0.487002
700,0.33723,0.00171295,0.661057,0.138116,0.374939,0.486945
699,0.33751,0.00169447,0.660795,0.138173,0.374939,0.486888
698,0.33779,0.00167615,0.660534,0.138229,0.37494,0.486831
697,0.33807,0.00165799,0.660272,0.138285,0.374941,0.486774
696,0.33835,0.00163999,0.66001,0.138342,0.374941,0.486717
695,0.33863,0.00162213,0.659748,0.138398,0.374942,0.48666
694,0.33891,0.00160443,0.659485,0.138454,0.374943,0.486603
693,0.339191,0.00158689,0.659222,0.138511,0.374943,0.486546
692,0.339471,0.00156949,0.658959,0.138567,0.374944,0.486489
691,0.339752,0.00155225,0.658696,0.138623,0.374944,0.486432
690,0.340033,0.00153515,0.658432,0.13868,0.374945,0.486375
689,0.340314,0.0015182,0.658168,0.138736,0.374946,0.486318
688,0.340595,0.0015014,0.657903,0.138792,0.374946,0.486261
687,0.340877,0.00148474,0.657639,0.138849,0.374947,0.486204
686,0.341158,0.00146823,0.657374,0.138905,0.374948,0.486148
685,0.34144,0.00145187,0.657108,0.138961,0.374948,0.486091
684,0.341721,0.00143564,0.656843,0.139018,0.374949,0.486034
683,0.342003,0.00141956,0.656577,0.139074,0.374949,0.485977
682,0.342286,0.00140362,0.656311,0.13913,0.37495,0.48592
681,0.342568,0.00138782,0.656044,0.139186,0.374951,0.485863
680,0.34285,0.00137216,0.655778,0.139243,0.374951,0.485806
679,0.343133,0.00135664,0.65551,0.139299,0.374952,0.485749
678,0.343416,0.00134126,0.655243,0.139355,0.374952,0.485692
677,0.343699,0.00132601,0.654975,0.139412,0.374953,0.485636
676,0.343982,0.0013109,0.654707,0.139468,0.374953,0.485579
675,0.344265,0.00129592,0.654439,0.139524,0.374954,0.485522
674,0.344549,0.00128108,0.65417,0.139581,0.374954,0.485465
673,0.344833,0.00126636,0.653901,0.139637,0.374955,0.485408
672,0.345117,0.00125179,0.653632,0.139693,0.374956,0.485351
671,0.345401,0.00123734,0.653362,0.139749,0.374956,0.485294
670,0.345685,0.00122302,0.653092,0.139806,0.374957,0.485238
669,0.34597,0.00120883,0.652822,0.139862,0.374957,0.485181
668,0.346254,0.00119477,0.652551,0.139918,0.374958,0.485124
667,0.346539,0.00118084,0.65228,0.139975,0.374958,0.485067
666,0.346824,0.00116704,0.652009,0.140031,0.374959,0.48501
665,0.34711,0.00115336,0.651737,0.140087,0.374959,0.484954
664,0.347395,0.00113981,0.651465,0.140143,0.37496,0.484897
663,0.347681,0.00112638,0.651193,0.1402,0.37496,0.48484
662,0.347967,0.00111307,0.65092,0.140256,0.374961,0.484783
661,0.348253,0.00109989,0.650647,0.140312,0.374961,0.484727
660,0.34854,0.00108683,0.650373,0.140369,0.374962,0.48467
659,0.348826,0.00107388,0.6501,0.140425,0.374962,0.484613
658,0.349113,0.00106106,0.649826,0.140481,0.374963,0.484556
657,0.3494,0.00104836,0.649551,0.140537,0.374963,0.4845
656,0.349688,0.00103578,0.649277,0.140594,0.374964,0.484443
655,0.349975,0.00102331,0.649001,0.14065,0.374964,0.484386
654,0.350263,0.00101097,0.648726,0.140706,0.374964,0.484329
653,0.350551,0.000998733,0.64845,0.140762,0.374965,0.484273
652,0.350839,0.000986616,0.648174,0.140819,0.374965,0.484216
651,0.351128,0.000974613,0.647897,0.140875,0.374966,0.484159
650,0.351417,0.000962724,0.647621,0.140931,0.374966,0.484103
649,0.351706,0.000950948,0.647343,0.140987,0.374967,0.484046
648,0.351995,0.000939284,0.647066,0.141044,0.374967,0.483989
647,0.352284,0.000927732,0.646788,0.1411,0.374967,0.483933
646,0.352574,0.00091629,0.64651,0.141156,0.374968,0.483876
645,0.352864,0.000904958,0.646231,0.141212,0.374968,0.483819
644,0.353154,0.000893734,0.645952,0.141269,0.374969,0.483763
643,0.353445,0.00088262,0.645672,0.141325,0.374969,0.483706
642,0.353736,0.000871612,0.645393,0.141381,0.37497,0.483649
641,0.354027,0.000860712,0.645112,0.141437,0.37497,0.483593
640,0.354318,0.000849918,0.644832,0.141494,0.37497,0.483536
639,0.35461,0.000839229,0.644551,0.14155,0.374971,0.48348
638,0.354902,0.000828644,0.64427,0.141606,0.374971,0.483423
637,0.355194,0.000818164,0.643988,0.141662,0.374972,0.483366
636,0.355486,0.000807787,0.643706,0.141718,0.374972,0.48331
635,0.355779,0.000797512,0.643424,0.141775,0.374972,0.483253
634,0.356072,0.000787338,0.643141,0.141831,0.374973,0.483197
633,0.356365,0.000777266,0.642858,0.141887,0.374973,0.48314
632,0.356659,0.000767294,0.642574,0.141943,0.374973,0.483083
631,0.356952,0.000757421,0.64229,0.141999,0.374974,0.483027
630,0.357247,0.000747648,0.642006,0.142056,0.374974,0.48297
629,0.357541,0.000737972,0.641721,0.142112,0.374974,0.482914
628,0.357836,0.000728394,0.641436,0.142168,0.374975,0.482857
627,0.358131,0.000718913,0.64115,0.142224,0.374975,0.482801
626,0.358426,0.000709527,0.640865,0.14228,0.374976,0.482744
625,0.358721,0.000700238,0.640578,0.142336,0.374976,0.482688
624,0.359017,0.000691042,0.640292,0.142393,0.374976,0.482631
623,0.359313,0.000681941,0.640005,0.142449,0.374977,0.482575
622,0.35961,0.000672933,0.639717,0.142505,0.374977,0.482518
621,0.359907,0.000664018,0.639429,0.142561,0.374977,0.482462
620,0.360204,0.000655194,0.639141,0.142617,0.374977,0.482405
619,0.360501,0.000646462,0.638852,0.142673,0.374978,0.482349
618,0.360799,0.000637821,0.638563,0.142729,0.374978,0.482292
617,0.361097,0.000629269,0.638274,0.142786,0.374978,0.482236
616,0.361395,0.000620807,0.637984,0.142842,0.374979,0.482179
615,0.361694,0.000612433,0.637694,0.142898,0.374979,0.482123
614,0.361993,0.000604148,0.637403,0.142954,0.374979,0.482067
613,0.362292,0.000595949,0.637112,0.14301,0.37498,0.48201
612,0.362592,0.000587838,0.63682,0.143066,0.37498,0.481954
611,0.362892,0.000579812,0.636528,0.143122,0.37498,0.481897
610,0.363192,0.000571872,0.636236,0.143178,0.374981,0.481841
609,0.363493,0.000564017,0.635943,0.143235,0.374981,0.481785
608,0.363793,0.000556245,0.63565,0.143291,0.374981,0.481728
607,0.364095,0.000548558,0.635357,0.143347,0.374981,0.481672
606,0.364396,0.000540953,0.635063,0.143403,0.374982,0.481616
605,0.364698,0.00053343,0.634768,0.143459,0.374982,0.481559
604,0.365001,0.000525989,0.634473,0.143515,0.374982,0.481503
603,0.365303,0.000518629,0.634178,0.143571,0.374982,0.481447
602,0.365606,0.000511349,0.633883,0.143627,0.374983,0.48139
601,0.365909,0.000504149,0.633586,0.143683,0.374983,0.481334
600,0.366213,0.000497028,0.63329,0.143739,0.374983,0.481278
599,0.366517,0.000489986,0.632993,0.143795,0.374983,0.481221
598,0.366821,0.000483022,0.632696,0.143851,0.374984,0.481165
597,0.367126,0.000476135,0.632398,0.143907,0.374984,0.481109
596,0.367431,0.000469324,0.6321,0.143963,0.374984,0.481053
595,0.367736,0.00046259,0.631801,0.144019,0.374984,0.480996
594,0.368042,0.000455932,0.631502,0.144075,0.374985,0.48094
593,0.368348,0.000449348,0.631202,0.144131,0.374985,0.480884
592,0.368655,0.000442838,0.630902,0.144187,0.374985,0.480828
591,0.368962,0.000436403,0.630602,0.144243,0.374985,0.480771
590,0.369269,0.00043004,0.630301,0.144299,0.374986,0.480715
589,0.369576,0.00042375,0.63,0.144355,0.374986,0.480659
588,0.369884,0.000417532,0.629698,0.144411,0.374986,0.480603
587,0.370193,0.000411386,0.629396,0.144467,0.374986,0.480547
586,0.370501,0.00040531,0.629093,0.144523,0.374987,0.48049
585,0.37081,0.000399305,0.62879,0.144579,0.374987,0.480434
584,0.37112,0.000393369,0.628487,0.144635,0.374987,0.480378
583,0.371429,0.000387502,0.628183,0.144691,0.374987,0.480322
582,0.37174,0.000381704,0.627879,0.144747,0.374987,0.480266
581,0.37205,0.000375974,0.627574,0.144803,0.374988,0.48021
580,0.372361,0.000370312,0.627269,0.144859,0.374988,0.480154
579,0.372672,0.000364716,0.626963,0.144915,0.374988,0.480097
578,0.372984,0.000359187,0.626657,0.14497,0.374988,0.480041
