Temp,"HSN(Si,Ti)@liq","HSN(Ti,Ti)@liquid","HSN(Si,Si)@liquid"
912,-46821.5,50153.7,372825
911,-46763.8,50105.7,377943
910,-46706.7,50057.9,383085
909,-46650.2,50010.1,388253
908,-46594.4,49962.5,393446
907,-46539.1,49914.9,398665
906,-46484.5,49867.4,403911
905,-46430.4,49820,409183
904,-46376.9,49772.7,414484
903,-46324,49725.5,419812
902,-46271.6,49678.3,425169
901,-46219.7,49631.3,430555
900,-46168.2,49584.3,435976
899,-46117.3,49537.4,441422
898,-46066.9,49490.5,446899
897,-46017,49443.8,452408
896,-45967.5,49397.1,457948
895,-45918.4,49350.5,463519
894,-45869.9,49304,469124
893,-45821.7,49257.5,474761
892,-45774,49211.1,480432
891,-45726.7,49164.7,486137
890,-45679.8,49118.5,491877
889,-45633.3,49072.3,497651
888,-45587.1,49026.1,503461
887,-45541.4,48980,509306
886,-45496,48934,515189
885,-45451,48888.1,521108
884,-45406.4,48842.2,527064
883,-45362.1,48796.3,533059
882,-45318.1,48750.5,539092
881,-45274.5,48704.8,545164
880,-45231.3,48659.1,551275
879,-45188.3,48613.5,557426
878,-45145.7,48567.9,563618
877,-45103.3,48522.4,569850
876,-45061.3,48476.9,576124
875,-45019.6,48431.5,582441
874,-44978.2,48386.1,588799
873,-44937.1,48340.8,595201
872,-44896.2,48295.5,601646
871,-44855.7,48250.3,608135
870,-44815.4,48205.2,614669
869,-44775.3,48160,621249
868,-44735.6,48114.9,627874
867,-44696.1,48069.9,634545
866,-44657,48024.9,641263
865,-44618,47979.9,648028
864,-44579.3,47935,654842
863,-44540.8,47890.1,661704
862,-44502.5,47845.3,668615
861,-44464.5,47800.6,675576
860,-44426.7,47755.8,682587
859,-44389.1,47711.1,689649
858,-44351.8,47666.5,696762
857,-44314.7,47621.9,703928
856,-44277.7,47577.3,711146
855,-44241.1,47532.8,718418
854,-44204.6,47488.3,725743
853,-44168.3,47443.8,733123
852,-44132.2,47399.4,740559
851,-44096.3,47355,748050
850,-44060.7,47310.7,755597
849,-44025.2,47266.4,763202
848,-43989.9,47222.1,770864
847,-43954.8,47177.8,778585
846,-43919.8,47133.6,786365
845,-43885.1,47089.5,794205
844,-43850.5,47045.4,802106
843,-43816.1,47001.3,810067
842,-43781.9,46957.2,818091
841,-43747.9,46913.2,826177
840,-43714,46869.2,834326
839,-43680.3,46825.2,842540
838,-43646.7,46781.3,850818
837,-43613.3,46737.4,859162
836,-43580.1,46693.5,867573
835,-43547,46649.7,876050
834,-43514.1,46605.9,884595
833,-43481.3,46562.2,893209
832,-43448.7,46518.4,901893
831,-43416.2,46474.7,910646
830,-43383.9,46431,919471
829,-43351.7,46387.4,928368
828,-43319.7,46343.8,937337
827,-43287.8,46300.2,946380
826,-43256,46256.7,955497
825,-43224.4,46213.1,964690
824,-43192.9,46169.6,973959
823,-43161.5,46126.2,983304
822,-43130.2,46082.7,992728
821,-43099.1,46039.3,1.00223e+06
820,-43068.1,45996,1.01181e+06
819,-43037.3,45952.6,1.02148e+06
818,-43006.5,45909.3,1.03122e+06
817,-42975.9,45866,1.04105e+06
816,-42945.4,45822.7,1.05096e+06
815,-42915,45779.5,1.06095e+06
814,-42884.7,45736.3,1.07103e+06
813,-42854.6,45693.1,1.0812e+06
812,-42824.5,45650,1.09146e+06
811,-42794.6,45606.8,1.1018e+06
810,-42764.7,45563.7,1.11223e+06
809,-42735,45520.7,1.12276e+06
808,-42705.4,45477.6,1.13337e+06
807,-42675.9,45434.6,1.14408e+06
806,-42646.5,45391.6,1.15488e+06
805,-42617.2,45348.6,1.16578e+06
804,-42588,45305.7,1.17677e+06
803,-42558.9,45262.8,1.18786e+06
802,-42529.8,45219.9,1.19905e+06
801,-42500.9,45177,1.21034e+06
800,-42472.1,45134.2,1.22173e+06
799,-42443.4,45091.4,1.23322e+06
798,-42414.7,45048.6,1.24482e+06
797,-42386.2,45005.8,1.25652e+06
796,-42357.7,44963.1,1.26832e+06
795,-42329.4,44920.4,1.28023e+06
794,-42301.1,44877.7,1.29225e+06
793,-42272.9,44835,1.30438e+06
792,-42244.8,44792.4,1.31662e+06
791,-42216.7,44749.8,1.32898e+06
790,-42188.8,44707.2,1.34145e+06
789,-42160.9,44664.6,1.35403e+06
788,-42133.1,44622.1,1.36673e+06
787,-42105.4,44579.6,1.37954e+06
786,-42077.8,44537.1,1.39248e+06
785,-42050.2,44494.6,1.40554e+06
784,-42022.8,44452.2,1.41871e+06
783,-41995.4,44409.7,1.43202e+06
782,-41968,44367.3,1.44545e+06
781,-41940.8,44325,1.459e+06
780,-41913.6,44282.6,1.47268e+06
779,-41886.5,44240.3,1.4865e+06
778,-41859.4,44198,1.50044e+06
777,-41832.4,44155.7,1.51452e+06
776,-41805.5,44113.5,1.52873e+06
775,-41778.7,44071.2,1.54308e+06
774,-41751.9,44029,1.55757e+06
773,-41725.2,43986.8,1.5722e+06
772,-41698.5,43944.7,1.58697e+06
771,-41672,43902.5,1.60188e+06
770,-41645.4,43860.4,1.61694e+06
769,-41619,43818.3,1.63215e+06
768,-41592.6,43776.2,1.64751e+06
767,-41566.2,43734.2,1.66301e+06
766,-41539.9,43692.1,1.67867e+06
765,-41513.7,43650.1,1.69449e+06
764,-41487.5,43608.1,1.71046e+06
763,-41461.4,43566.2,1.72659e+06
762,-41435.3,43524.2,1.74288e+06
761,-41409.3,43482.3,1.75933e+06
760,-41383.4,43440.4,1.77595e+06
759,-41357.5,43398.6,1.79274e+06
758,-41331.6,43356.7,1.8097e+06
757,-41305.8,43314.9,1.82682e+06
756,-41280.1,43273.1,1.84412e+06
755,-41254.4,43231.3,1.8616e+06
754,-41228.7,43189.5,1.87926e+06
753,-41203.1,43147.8,1.89709e+06
752,-41177.5,43106.1,1.91511e+06
751,-41152,43064.4,1.93332e+06
750,-41126.6,43022.7,1.95171e+06
749,-41101.1,42981.1,1.9703e+06
748,-41075.8,42939.4,1.98907e+06
747,-41050.4,42897.8,2.00805e+06
746,-41025.1,42856.2,2.02722e+06
745,-40999.9,42814.7,2.04659e+06
744,-40974.7,42773.1,2.06616e+06
743,-40949.5,42731.6,2.08594e+06
742,-40924.4,42690.1,2.10593e+06
741,-40899.3,42648.6,2.12613e+06
740,-40874.2,42607.2,2.14655e+06
739,-40849.2,42565.8,2.16718e+06
738,-40824.2,42524.3,2.18804e+06
737,-40799.3,42483,2.20911e+06
736,-40774.4,42441.6,2.23042e+06
735,-40749.5,42400.2,2.25195e+06
734,-40724.7,42358.9,2.27372e+06
733,-40699.9,42317.6,2.29572e+06
732,-40675.1,42276.3,2.31796e+06
731,-40650.4,42235.1,2.34044e+06
730,-40625.7,42193.8,2.36317e+06
729,-40601,42152.6,2.38615e+06
728,-40576.4,42111.4,2.40938e+06
727,-40551.8,42070.3,2.43287e+06
726,-40527.2,42029.1,2.45662e+06
725,-40502.6,41988,2.48063e+06
724,-40478.1,41946.9,2.5049e+06
723,-40453.6,41905.8,2.52945e+06
722,-40429.1,41864.7,2.55428e+06
721,-40404.7,41823.7,2.57938e+06
720,-40380.3,41782.6,2.60476e+06
719,-40355.9,41741.6,2.63043e+06
718,-40331.5,41700.7,2.65639e+06
717,-40307.2,41659.7,2.68265e+06
716,-40282.9,41618.8,2.7092e+06
715,-40258.6,41577.9,2.73606e+06
714,-40234.3,41537,2.76322e+06
713,-40210.1,41496.1,2.7907e+06
712,-40185.9,41455.2,2.81849e+06
711,-40161.7,41414.4,2.84661e+06
710,-40137.5,41373.6,2.87504e+06
709,-40113.3,41332.8,2.90381e+06
708,-40089.2,41292.1,2.93292e+06
707,-40065.1,41251.3,2.96237e+06
706,-40041,41210.6,2.99216e+06
705,-40016.9,41169.9,3.0223e+06
704,-39992.9,41129.2,3.05279e+06
703,-39968.8,41088.6,3.08365e+06
702,-39944.8,41047.9,3.11487e+06
701,-39920.8,41007.3,3.14647e+06
700,-39896.8,40966.7,3.17844e+06
699,-39872.8,40926.2,3.21079e+06
698,-39848.8,40885.6,3.24353e+06
697,-39824.9,40845.1,3.27667e+06
696,-39801,40804.6,3.31021e+06
695,-39777,40764.1,3.34415e+06
694,-39753.1,40723.7,3.37851e+06
693,-39729.2,40683.2,3.41328e+06
692,-39705.4,40642.8,3.44848e+06
691,-39681.5,40602.4,3.48411e+06
690,-39657.6,40562,3.52018e+06
689,-39633.8,40521.7,3.55669e+06
688,-39609.9,40481.4,3.59366e+06
687,-39586.1,40441.1,3.63108e+06
686,-39562.3,40400.8,3.66897e+06
685,-39538.5,40360.5,3.70733e+06
684,-39514.7,40320.3,3.74618e+06
683,-39490.9,40280.1,3.78551e+06
682,-39467.1,40239.9,3.82533e+06
681,-39443.4,40199.7,3.86566e+06
680,-39419.6,40159.5,3.90651e+06
679,-39395.8,40119.4,3.94787e+06
678,-39372.1,40079.3,3.98976e+06
677,-39348.3,40039.2,4.03218e+06
676,-39324.6,39999.2,4.07515e+06
675,-39300.9,39959.1,4.11868e+06
674,-39277.2,39919.1,4.16276e+06
673,-39253.4,39879.1,4.20742e+06
672,-39229.7,39839.1,4.25266e+06
671,-39206,39799.2,4.29849e+06
670,-39182.3,39759.3,4.34492e+06
669,-39158.6,39719.4,4.39196e+06
668,-39134.9,39679.5,4.43962e+06
667,-39111.2,39639.6,4.48791e+06
666,-39087.5,39599.8,4.53683e+06
665,-39063.8,39560,4.58641e+06
664,-39040.1,39520.2,4.63666e+06
663,-39016.4,39480.4,4.68757e+06
662,-38992.7,39440.6,4.73917e+06
661,-38969,39400.9,4.79146e+06
660,-38945.3,39361.2,4.84446e+06
659,-38921.6,39321.5,4.89818e+06
658,-38897.9,39281.9,4.95264e+06
657,-38874.2,39242.3,5.00783e+06
656,-38850.5,39202.6,5.06379e+06
655,-38826.8,39163.1,5.12051e+06
654,-38803.1,39123.5,5.17801e+06
653,-38779.4,39084,5.23632e+06
652,-38755.7,39044.4,5.29543e+06
651,-38732,39004.9,5.35536e+06
650,-38708.2,38965.5,5.41614e+06
649,-38684.5,38926,5.47777e+06
648,-38660.8,38886.6,5.54027e+06
647,-38637.1,38847.2,5.60365e+06
646,-38613.3,38807.8,5.66793e+06
645,-38589.6,38768.5,5.73313e+06
644,-38565.9,38729.1,5.79925e+06
643,-38542.1,38689.8,5.86633e+06
642,-38518.4,38650.5,5.93438e+06
641,-38494.6,38611.3,6.0034e+06
640,-38470.8,38572,6.07343e+06
639,-38447,38532.8,6.14448e+06
638,-38423.3,38493.6,6.21657e+06
637,-38399.5,38454.5,6.28971e+06
636,-38375.7,38415.3,6.36393e+06
635,-38351.9,38376.2,6.43925e+06
634,-38328.1,38337.1,6.51568e+06
633,-38304.2,38298,6.59326e+06
632,-38280.4,38259,6.67199e+06
631,-38256.6,38220,6.75191e+06
630,-38232.7,38181,6.83302e+06
629,-38208.8,38142,6.91537e+06
628,-38185,38103,6.99897e+06
627,-38161.1,38064.1,7.08384e+06
626,-38137.2,38025.2,7.17001e+06
625,-38113.3,37986.3,7.25751e+06
624,-38089.4,37947.5,7.34636e+06
623,-38065.4,37908.6,7.43659e+06
622,-38041.5,37869.8,7.52822e+06
621,-38017.6,37831,7.62128e+06
620,-37993.6,37792.3,7.71581e+06
619,-37969.6,37753.5,7.81182e+06
618,-37945.6,37714.8,7.90936e+06
617,-37921.6,37676.1,8.00844e+06
616,-37897.6,37637.5,8.10911e+06
615,-37873.6,37598.8,8.2114e+06
614,-37849.5,37560.2,8.31534e+06
613,-37825.5,37521.7,8.42096e+06
612,-37801.4,37483.1,8.5283e+06
611,-37777.3,37444.5,8.63739e+06
610,-37753.2,37406,8.74827e+06
609,-37729.1,37367.5,8.86099e+06
608,-37705,37329.1,8.97557e+06
607,-37680.8,37290.6,9.09207e+06
606,-37656.7,37252.2,9.21051e+06
605,-37632.5,37213.8,9.33095e+06
604,-37608.3,37175.5,9.45343e+06
603,-37584.1,37137.1,9.57799e+06
602,-37559.9,37098.8,9.70467e+06
601,-37535.6,37060.5,9.83354e+06
600,-37511.4,37022.3,9.96463e+06
599,-37487.1,36984,1.0098e+07
598,-37462.8,36945.8,1.02337e+07
597,-37438.5,36907.6,1.03718e+07
596,-37414.1,36869.5,1.05123e+07
595,-37389.8,36831.3,1.06553e+07
594,-37365.4,36793.2,1.08009e+07
593,-37341,36755.2,1.09491e+07
592,-37316.6,36717.1,1.10999e+07
591,-37292.2,36679.1,1.12536e+07
590,-37267.7,36641.1,1.141e+07
589,-37243.3,36603.1,1.15693e+07
588,-37218.8,36565.1,1.17316e+07
587,-37194.3,36527.2,1.18968e+07
586,-37169.8,36489.3,1.20652e+07
585,-37145.2,36451.4,1.22368e+07
584,-37120.6,36413.5,1.24117e+07
583,-37096.1,36375.7,1.25899e+07
582,-37071.4,36337.9,1.27715e+07
581,-37046.8,36300.1,1.29567e+07
580,-37022.2,36262.4,1.31455e+07
579,-36997.5,36224.7,1.3338e+07
578,-36972.8,36187,1.35344e+07
577,-36948.1,36149.3,1.37347e+07
576,-36923.3,36111.7,1.39391e+07
575,-36898.6,36074,1.41476e+07
574,-36873.8,36036.5,1.43604e+07
573,-36849,35998.9,1.45776e+07
572,-36824.2,35961.4,1.47994e+07
571,-36799.3,35923.8,1.50259e+07
570,-36774.5,35886.4,1.52571e+07
569,-36749.6,35848.9,1.54934e+07
568,-36724.6,35811.5,1.57348e+07
567,-36699.7,35774.1,1.59815e+07
566,-36674.7,35736.7,1.62336e+07
565,-36649.7,35699.3,1.64914e+07
564,-36624.7,35662,1.6755e+07
563,-36599.7,35624.7,1.70247e+07
562,-36574.6,35587.4,1.73005e+07
561,-36549.5,35550.2,1.75829e+07
560,-36524.4,35513,1.78719e+07
559,-36499.3,35475.8,1.81679e+07
558,-36474.1,35438.6,1.8471e+07
557,-36448.9,35401.5,1.87816e+07
556,-36423.7,35364.4,1.90999e+07
555,-36398.5,35327.3,1.94262e+07
554,-36373.2,35290.2,1.97609e+07
553,-36347.9,35253.2,2.01043e+07
552,-36322.6,35216.2,2.04567e+07
551,-36297.3,35179.2,2.08186e+07
550,-36271.9,35142.3,2.11903e+07
549,-36246.5,35105.4,2.15722e+07
548,-36221.1,35068.5,2.19649e+07
547,-36195.7,35031.6,2.23688e+07
546,-36170.2,34994.8,2.27845e+07
545,-36144.7,34958,2.32124e+07
544,-36119.2,34921.2,2.36533e+07
543,-36093.7,34884.4,2.41078e+07
542,-36068.1,34847.7,2.45766e+07
541,-36042.5,34811,2.50605e+07
540,-36016.8,34774.4,2.55602e+07
539,-35991.2,34737.7,2.60768e+07
538,-35965.5,34701.1,2.66111e+07
537,-35939.8,34664.5,2.71643e+07
536,-35914.1,34628,2.77375e+07
535,-35888.3,34591.4,2.8332e+07
534,-35862.5,34554.9,2.89493e+07
533,-35836.7,34518.4,2.95909e+07
532,-35810.8,34482,3.02585e+07
531,-35785,34445.6,3.09541e+07
530,-35759.1,34409.2,3.16798e+07
529,-35733.1,34372.8,3.24381e+07
528,-35707.2,34336.5,3.32317e+07
527,-35681.2,34300.2,3.40637e+07
526,-35655.2,34263.9,3.49375e+07
525,-35629.1,34227.7,3.58574e+07
524,-35603,34191.4,3.68278e+07
523,-35576.9,34155.2,3.78542e+07
522,-35550.8,34119.1,3.89429e+07
521,-35524.7,34082.9,4.01014e+07
520,-35498.5,34046.8,4.13386e+07
519,-35472.2,34010.8,4.26651e+07
518,-35446,33974.7,4.40942e+07
517,-35419.7,33938.7,4.56418e+07
516,-35393.4,33902.7,4.73285e+07
515,-35367.1,33866.7,4.91802e+07
514,-35340.7,33830.8,5.12312e+07
513,-35314.4,33794.9,5.35275e+07
512,-35287.9,33759,5.61332e+07
511,-35261.5,33723.1,5.91412e+07
510,-35235,33687.3,6.26938e+07
509,-35208.5,33651.5,6.70252e+07
508,-35182,33615.8,7.2562e+07
507,-35155.4,33580,8.02183e+07
506,-35128.8,33544.3,9.26259e+07
505,-35102.2,33508.6,1.28529e+08
504,-35075.6,33473,2.08776e+08
503,-35048.9,33437.4,2.10226e+08
502,-35022.2,33401.8,2.11674e+08
501,-34995.4,33366.2,2.13118e+08
500,-34968.7,33330.7,2.14559e+08
499,-34941.9,33295.2,2.15995e+08
498,-34915.1,33259.7,2.17428e+08
497,-34888.2,33224.2,2.18855e+08
496,-34861.3,33188.8,2.20278e+08
495,-34834.4,33153.4,2.21695e+08
494,-34807.5,33118.1,2.23106e+08
493,-34780.5,33082.7,2.24511e+08
492,-34753.5,33047.4,2.2591e+08
491,-34726.5,33012.2,2.27301e+08
490,-34699.4,32976.9,2.28685e+08
489,-34672.3,32941.7,2.30061e+08
488,-34645.2,32906.5,2.31429e+08
487,-34618.1,32871.4,2.32788e+08
486,-34590.9,32836.2,2.34138e+08
485,-34563.7,32801.1,2.35479e+08
484,-34536.4,32766.1,2.3681e+08
483,-34509.2,32731,2.38131e+08
482,-34481.9,32696,2.39441e+08
481,-34454.6,32661,2.40741e+08
480,-34427.2,32626.1,2.42028e+08
479,-34399.8,32591.1,2.43304e+08
478,-34372.4,32556.2,2.44568e+08
477,-34345,32521.4,2.4582e+08
476,-34317.5,32486.5,2.47059e+08
475,-34290,32451.7,2.48284e+08
474,-34262.5,32417,2.49496e+08
473,-34235,32382.2,2.50694e+08
472,-34207.4,32347.5,2.51877e+08
471,-34179.8,32312.8,2.53046e+08
470,-34152.1,32278.1,2.542e+08
469,-34124.5,32243.5,2.55339e+08
468,-34096.8,32208.9,2.56462e+08
467,-34069.1,32174.3,2.57569e+08
466,-34041.3,32139.8,2.5866e+08
465,-34013.5,32105.3,2.59734e+08
464,-33985.7,32070.8,2.60791e+08
463,-33957.9,32036.3,2.61832e+08
462,-33930,32001.9,2.62855e+08
461,-33902.1,31967.5,2.6386e+08
460,-33874.2,31933.1,2.64847e+08
459,-33846.3,31898.8,2.65816e+08
458,-33818.3,31864.5,2.66767e+08
457,-33790.3,31830.2,2.67699e+08
456,-33762.3,31796,2.68612e+08
455,-33734.2,31761.7,2.69507e+08
454,-33706.1,31727.5,2.70382e+08
453,-33678,31693.4,2.71237e+08
452,-33649.9,31659.3,2.72073e+08
451,-33621.7,31625.1,2.72889e+08
450,-33593.5,31591.1,2.73685e+08
449,-33565.3,31557,2.74462e+08
448,-33537.1,31523,2.75218e+08
447,-33508.8,31489,2.75953e+08
446,-33480.5,31455.1,2.76669e+08
445,-33452.2,31421.1,2.77363e+08
444,-33423.8,31387.2,2.78038e+08
443,-33395.5,31353.4,2.78691e+08
442,-33367.1,31319.5,2.79324e+08
441,-33338.6,31285.7,2.79936e+08
440,-33310.2,31251.9,2.80527e+08
439,-33281.7,31218.2,2.81097e+08
438,-33253.2,31184.4,2.81647e+08
437,-33224.7,31150.8,2.82175e+08
436,-33196.1,31117.1,2.82683e+08
435,-33167.5,31083.4,2.8317e+08
434,-33138.9,31049.8,2.83636e+08
433,-33110.3,31016.3,2.84081e+08
432,-33081.6,30982.7,2.84506e+08
431,-33053,30949.2,2.84909e+08
430,-33024.3,30915.7,2.85293e+08
429,-32995.5,30882.2,2.85655e+08
428,-32966.8,30848.8,2.85997e+08
427,-32938,30815.4,2.86319e+08
426,-32909.2,30782,2.8662e+08
425,-32880.4,30748.7,2.86902e+08
424,-32851.5,30715.4,2.87163e+08
423,-32822.7,30682.1,2.87404e+08
422,-32793.8,30648.8,2.87626e+08
421,-32764.9,30615.6,2.87827e+08
420,-32735.9,30582.4,2.8801e+08
419,-32707,30549.2,2.88173e+08
418,-32678,30516.1,2.88317e+08
417,-32649,30482.9,2.88441e+08
416,-32620,30449.8,2.88547e+08
415,-32590.9,30416.8,2.88635e+08
414,-32561.9,30383.8,2.88704e+08
413,-32532.8,30350.8,2.88754e+08
412,-32503.7,30317.8,2.88787e+08
411,-32474.5,30284.8,2.88801e+08
410,-32445.4,30251.9,2.88798e+08
409,-32416.2,30219,2.88778e+08
408,-32387,30186.2,2.8874e+08
407,-32357.8,30153.3,2.88686e+08
406,-32328.6,30120.5,2.88614e+08
405,-32299.3,30087.8,2.88526e+08
404,-32270,30055,2.88422e+08
403,-32240.7,30022.3,2.88302e+08
402,-32211.4,29989.6,2.88165e+08
401,-32182.1,29957,2.88014e+08
400,-32152.8,29924.3,2.87846e+08
399,-32123.4,29891.7,2.87664e+08
398,-32094,29859.1,2.87467e+08
397,-32064.6,29826.6,2.87255e+08
396,-32035.2,29794.1,2.87029e+08
395,-32005.7,29761.6,2.86788e+08
394,-31976.3,29729.1,2.86534e+08
393,-31946.8,29696.7,2.86266e+08
392,-31917.3,29664.3,2.85985e+08
391,-31887.8,29631.9,2.8569e+08
390,-31858.3,29599.5,2.85383e+08
389,-31828.7,29567.2,2.85063e+08
388,-31799.2,29534.9,2.8473e+08
387,-31769.6,29502.7,2.84385e+08
386,-31740,29470.4,2.84029e+08
385,-31710.4,29438.2,2.8366e+08
384,-31680.8,29406,2.83281e+08
383,-31651.2,29373.9,2.8289e+08
382,-31621.5,29341.7,2.82487e+08
381,-31591.9,29309.6,2.82075e+08
380,-31562.2,29277.5,2.81651e+08
379,-31532.5,29245.5,2.81218e+08
378,-31502.8,29213.5,2.80774e+08
377,-31473.1,29181.5,2.80321e+08
376,-31443.4,29149.5,2.79858e+08
375,-31413.6,29117.6,2.79386e+08
374,-31383.9,29085.6,2.78904e+08
373,-31354.1,29053.8,2.78414e+08
372,-31324.3,29021.9,2.77915e+08
371,-31294.5,28990.1,2.77407e+08
370,-31264.7,28958.3,2.76891e+08
369,-31234.9,28926.5,2.76367e+08
368,-31205.1,28894.7,2.75835e+08
367,-31175.2,28863,2.75296e+08
366,-31145.4,28831.3,2.74749e+08
365,-31115.5,28799.6,2.74194e+08
364,-31085.7,28768,2.73633e+08
363,-31055.8,28736.4,2.73065e+08
362,-31025.9,28704.8,2.7249e+08
361,-30996,28673.2,2.71908e+08
360,-30966.1,28641.7,2.7132e+08
359,-30936.2,28610.1,2.70726e+08
358,-30906.3,28578.7,2.70126e+08
357,-30876.4,28547.2,2.69521e+08
356,-30846.4,28515.8,2.68909e+08
355,-30816.5,28484.4,2.68292e+08
354,-30786.5,28453,2.6767e+08
353,-30756.6,28421.6,2.67042e+08
352,-30726.6,28390.3,2.66409e+08
351,-30696.7,28359,2.65772e+08
350,-30666.7,28327.7,2.6513e+08
349,-30636.7,28296.4,2.64483e+08
348,-30606.7,28265.2,2.63832e+08
347,-30576.7,28234,2.63176e+08
346,-30546.8,28202.8,2.62517e+08
345,-30516.8,28171.7,2.61853e+08
344,-30486.8,28140.5,2.61185e+08
343,-30456.7,28109.4,2.60514e+08
342,-30426.7,28078.3,2.59838e+08
341,-30396.7,28047.3,2.5916e+08
340,-30366.7,28016.3,2.58478e+08
339,-30336.7,27985.3,2.57792e+08
338,-30306.7,27954.3,2.57104e+08
337,-30276.7,27923.3,2.56412e+08
336,-30246.6,27892.4,2.55717e+08
335,-30216.6,27861.5,2.5502e+08
334,-30186.6,27830.6,2.54319e+08
333,-30156.6,27799.7,2.53616e+08
332,-30126.5,27768.9,2.52911e+08
331,-30096.5,27738.1,2.52202e+08
330,-30066.5,27707.3,2.51492e+08
329,-30036.5,27676.6,2.50779e+08
328,-30006.4,27645.8,2.50064e+08
327,-29976.4,27615.1,2.49346e+08
326,-29946.4,27584.4,2.48627e+08
325,-29916.4,27553.8,2.47905e+08
324,-29886.4,27523.1,2.47182e+08
323,-29856.4,27492.5,2.46457e+08
322,-29826.4,27461.9,2.4573e+08
321,-29796.4,27431.3,2.45001e+08
320,-29766.4,27400.8,2.44271e+08
319,-29736.4,27370.3,2.43539e+08
318,-29706.4,27339.8,2.42805e+08
317,-29676.4,27309.3,2.4207e+08
316,-29646.4,27278.8,2.41334e+08
315,-29616.4,27248.4,2.40596e+08
314,-29586.4,27218,2.39857e+08
313,-29556.5,27187.6,2.39117e+08
312,-29526.5,27157.2,2.38375e+08
311,-29496.6,27126.9,2.37632e+08
310,-29466.6,27096.6,2.36889e+08
309,-29436.7,27066.3,2.36144e+08
308,-29406.8,27036,2.35398e+08
307,-29376.8,27005.7,2.34651e+08
306,-29346.9,26975.5,2.33903e+08
305,-29317,26945.3,2.33155e+08
304,-29287.1,26915.1,2.32405e+08
303,-29257.2,26885,2.31655e+08
302,-29227.4,26854.8,2.30904e+08
301,-29197.5,26824.7,2.30152e+08
300,-29167.6,26794.6,2.294e+08
299,-29137.8,26764.5,2.28647e+08
298,-29108,26734.5,2.27893e+08
297,-29078.1,26704.4,2.27138e+08
296,-29048.3,26674.4,2.26383e+08
295,-29018.5,26644.4,2.25628e+08
294,-28988.8,26614.5,2.24872e+08
293,-28959,26584.5,2.24115e+08
292,-28929.2,26554.6,2.23358e+08
291,-28899.5,26524.7,2.226e+08
290,-28869.8,26494.8,2.21842e+08
289,-28840.1,26464.9,2.21084e+08
288,-28810.4,26435.1,2.20325e+08
287,-28780.7,26405.2,2.19566e+08
